E [keV], sigma [10^22 cm^-2]
 0.105      445.007
 0.115      353.531
 0.125      286.302
 0.135      235.640
 0.145      196.577
 0.155      165.833
 0.165      141.203
 0.175      121.172
 0.185      104.685
 0.195      90.9788
 0.205      79.4920
 0.215      69.7919
 0.225      61.5466
 0.235      54.4931
 0.245      48.4268
 0.255      43.1798
 0.265      38.6188
 0.275      34.6352
 0.285      34.0214
 0.295      32.6508
 0.305      29.6333
 0.315      26.9791
 0.325      24.6354
 0.335      22.5584
 0.345      20.7102
 0.355      19.0607
 0.365      17.5842
 0.375      16.2585
 0.385      15.0643
 0.395      13.9856
 0.405      13.5515
 0.415      12.6305
 0.425      11.7910
 0.435      11.0243
 0.445      10.3223
 0.455      9.67871
 0.465      9.08724
 0.475      8.54259
 0.485      8.04050
 0.495      7.57663
 0.505      7.14742
 0.515      6.74954
 0.525      6.38040
 0.535      9.20801
 0.545      9.68837
 0.555      9.22006
 0.565      8.78212
 0.575      8.37196
 0.585      7.98731
 0.595      7.62643
 0.605      7.28712
 0.615      6.96815
 0.625      6.66760
 0.635      6.38442
 0.645      6.11723
 0.655      5.86506
 0.665      5.62648
 0.675      5.40089
 0.685      5.18735
 0.695      4.98490
 0.705      4.94854
 0.715      5.11895
 0.725      4.92122
 0.735      4.73535
 0.745      4.56034
 0.755      4.39552
 0.765      4.24023
 0.775      4.09370
 0.785      3.95533
 0.795      3.82466
 0.805      3.70111
 0.815      3.58418
 0.825      3.47346
 0.835      3.36864
 0.845      3.26923
 0.855      3.17487
 0.865      3.22762
 0.875      3.46678
 0.885      3.36285
 0.895      3.26318
 0.905      3.16746
 0.915      3.07546
 0.925      2.98708
 0.935      2.90212
 0.945      2.82040
 0.955      2.74177
 0.965      2.66603
 0.975      2.59315
 0.985      2.52292
 0.995      2.45518
 1.005      2.38989
 1.015      2.32691
 1.025      2.26614
 1.035      2.20752
 1.045      2.15088
 1.055      2.09619
 1.065      2.04333
 1.075      1.99228
 1.085      1.94287
 1.095      1.89511
 1.105      1.84888
 1.115      1.80416
 1.125      1.76086
 1.135      1.71890
 1.145      1.67831
 1.155      1.63894
 1.165      1.60082
 1.175      1.56384
 1.185      1.52799
 1.195      1.49321
 1.205      1.45947
 1.215      1.42676
 1.225      1.39498
 1.235      1.36412
 1.245      1.33414
 1.255      1.30505
 1.265      1.27674
 1.275      1.24927
 1.285      1.22254
 1.295      1.19658
 1.305      1.23072
 1.315      1.23085
 1.325      1.20593
 1.335      1.18169
 1.345      1.15808
 1.355      1.13513
 1.365      1.11275
 1.375      1.09099
 1.385      1.06977
 1.395      1.04912
 1.405      1.02899
 1.415      1.00935
 1.425     0.990238
 1.435     0.971615
 1.445     0.953430
 1.455     0.935716
 1.465     0.918411
 1.475     0.901551
 1.485     0.885088
 1.495     0.869033
 1.505     0.853375
 1.515     0.838070
 1.525     0.823121
 1.535     0.808533
 1.545     0.794293
 1.555     0.780376
 1.565     0.766777
 1.575     0.753479
 1.585     0.740495
 1.595     0.727801
 1.605     0.715394
 1.615     0.703265
 1.625     0.691406
 1.635     0.679809
 1.645     0.668458
 1.655     0.657354
 1.665     0.646503
 1.675     0.635870
 1.685     0.625484
 1.695     0.615297
 1.705     0.605343
 1.715     0.595582
 1.725     0.586037
 1.735     0.576686
 1.745     0.567528
 1.755     0.558559
 1.765     0.549771
 1.775     0.541164
 1.785     0.532722
 1.795     0.524468
 1.805     0.516358
 1.815     0.508422
 1.825     0.500639
 1.835     0.493010
 1.845     0.538207
 1.855     0.530206
 1.865     0.522362
 1.875     0.514672
 1.885     0.507135
 1.895     0.499732
 1.905     0.492491
 1.915     0.485382
 1.925     0.478402
 1.935     0.471564
 1.945     0.464852
 1.955     0.458276
 1.965     0.451813
 1.975     0.445472
 1.985     0.439252
 1.995     0.433145
 2.005     0.427155
 2.015     0.421267
 2.025     0.415497
 2.035     0.409821
 2.045     0.404257
 2.055     0.398781
 2.065     0.393410
 2.075     0.388132
 2.085     0.382955
 2.095     0.377865
 2.105     0.372861
 2.115     0.367946
 2.125     0.363109
 2.135     0.358368
 2.145     0.353699
 2.155     0.349118
 2.165     0.344605
 2.175     0.340178
 2.185     0.335818
 2.195     0.331540
 2.205     0.327329
 2.215     0.323182
 2.225     0.319112
 2.235     0.315106
 2.245     0.311166
 2.255     0.307291
 2.265     0.303478
 2.275     0.299726
 2.285     0.296038
 2.295     0.292407
 2.305     0.288832
 2.315     0.285319
 2.325     0.281859
 2.335     0.278453
 2.345     0.275099
 2.355     0.271801
 2.365     0.268553
 2.375     0.265351
 2.385     0.262206
 2.395     0.259106
 2.405     0.256054
 2.415     0.253048
 2.425     0.250088
 2.435     0.247171
 2.445     0.244296
 2.455     0.241470
 2.465     0.238682
 2.475     0.254499
 2.485     0.253613
 2.495     0.250698
 2.505     0.247821
 2.515     0.244996
 2.525     0.242215
 2.535     0.239472
 2.545     0.236772
 2.555     0.234116
 2.565     0.231503
 2.575     0.228925
 2.585     0.226383
 2.595     0.223888
 2.605     0.221421
 2.615     0.218995
 2.625     0.216608
 2.635     0.214250
 2.645     0.211930
 2.655     0.209644
 2.665     0.207396
 2.675     0.205173
 2.685     0.202987
 2.695     0.200832
 2.705     0.198706
 2.715     0.196611
 2.725     0.194549
 2.735     0.192514
 2.745     0.190506
 2.755     0.188531
 2.765     0.186581
 2.775     0.184658
 2.785     0.182761
 2.795     0.180893
 2.805     0.179050
 2.815     0.177232
 2.825     0.175441
 2.835     0.173673
 2.845     0.171929
 2.855     0.170210
 2.865     0.168513
 2.875     0.166839
 2.885     0.165190
 2.895     0.163559
 2.905     0.161952
 2.915     0.160366
 2.925     0.158801
 2.935     0.157257
 2.945     0.155733
 2.955     0.154231
 2.965     0.152748
 2.975     0.151285
 2.985     0.149840
 2.995     0.148412
 3.005     0.147003
 3.015     0.145615
 3.025     0.144242
 3.035     0.142890
 3.045     0.141554
 3.055     0.140231
 3.065     0.138930
 3.075     0.137642
 3.085     0.136369
 3.095     0.135117
 3.105     0.133879
 3.115     0.132654
 3.125     0.131447
 3.135     0.130255
 3.145     0.129074
 3.155     0.127910
 3.165     0.126762
 3.175     0.125626
 3.185     0.124504
 3.195     0.123397
 3.205     0.122300
 3.215     0.124079
 3.225     0.122985
 3.235     0.121902
 3.245     0.120833
 3.255     0.119776
 3.265     0.118734
 3.275     0.117702
 3.285     0.116684
 3.295     0.115677
 3.305     0.114683
 3.315     0.113699
 3.325     0.112726
 3.335     0.111764
 3.345     0.110817
 3.355     0.109878
 3.365     0.108949
 3.375     0.108033
 3.385     0.107126
 3.395     0.106231
 3.405     0.105346
 3.415     0.104469
 3.425     0.103603
 3.435     0.102747
 3.445     0.101901
 3.455     0.101064
 3.465     0.100237
 3.475    0.0994186
 3.485    0.0986099
 3.495    0.0978087
 3.505    0.0970169
 3.515    0.0962355
 3.525    0.0954598
 3.535    0.0946956
 3.545    0.0939385
 3.555    0.0931898
 3.565    0.0924479
 3.575    0.0917153
 3.585    0.0909914
 3.595    0.0902744
 3.605    0.0895647
 3.615    0.0888639
 3.625    0.0881690
 3.635    0.0874820
 3.645    0.0868038
 3.655    0.0861306
 3.665    0.0854655
 3.675    0.0848078
 3.685    0.0841571
 3.695    0.0835119
 3.705    0.0828747
 3.715    0.0822443
 3.725    0.0816193
 3.735    0.0810013
 3.745    0.0803897
 3.755    0.0797847
 3.765    0.0791855
 3.775    0.0785916
 3.785    0.0780058
 3.795    0.0774237
 3.805    0.0768498
 3.815    0.0762807
 3.825    0.0757175
 3.835    0.0751601
 3.845    0.0746079
 3.855    0.0740613
 3.865    0.0735201
 3.875    0.0729840
 3.885    0.0724553
 3.895    0.0719298
 3.905    0.0714091
 3.915    0.0708954
 3.925    0.0703851
 3.935    0.0698805
 3.945    0.0693817
 3.955    0.0688872
 3.965    0.0683971
 3.975    0.0679125
 3.985    0.0674311
 3.995    0.0669556
 4.005    0.0664839
 4.015    0.0660170
 4.025    0.0655555
 4.035    0.0653624
 4.045    0.0659478
 4.055    0.0654664
 4.065    0.0649887
 4.075    0.0645173
 4.085    0.0640511
 4.095    0.0635872
 4.105    0.0631294
 4.115    0.0626758
 4.125    0.0622276
 4.135    0.0617814
 4.145    0.0613406
 4.155    0.0609047
 4.165    0.0604718
 4.175    0.0600437
 4.185    0.0596196
 4.195    0.0591999
 4.205    0.0587842
 4.215    0.0583720
 4.225    0.0579636
 4.235    0.0575587
 4.245    0.0571579
 4.255    0.0567614
 4.265    0.0563683
 4.275    0.0559783
 4.285    0.0555921
 4.295    0.0552098
 4.305    0.0548316
 4.315    0.0544561
 4.325    0.0540847
 4.335    0.0537160
 4.345    0.0533508
 4.355    0.0529899
 4.365    0.0526311
 4.375    0.0522758
 4.385    0.0519240
 4.395    0.0515750
 4.405    0.0512292
 4.415    0.0508872
 4.425    0.0505480
 4.435    0.0502112
 4.445    0.0498784
 4.455    0.0495482
 4.465    0.0492206
 4.475    0.0488964
 4.485    0.0485748
 4.495    0.0482559
 4.505    0.0479396
 4.515    0.0476265
 4.525    0.0473171
 4.535    0.0470089
 4.545    0.0467047
 4.555    0.0464019
 4.565    0.0461022
 4.575    0.0458063
 4.585    0.0455107
 4.595    0.0452194
 4.605    0.0449299
 4.615    0.0446433
 4.625    0.0443581
 4.635    0.0440766
 4.645    0.0437970
 4.655    0.0435203
 4.665    0.0432455
 4.675    0.0429729
 4.685    0.0427027
 4.695    0.0424344
 4.705    0.0421698
 4.715    0.0419061
 4.725    0.0416449
 4.735    0.0413861
 4.745    0.0411296
 4.755    0.0408745
 4.765    0.0406231
 4.775    0.0403710
 4.785    0.0401233
 4.795    0.0398776
 4.805    0.0396341
 4.815    0.0393912
 4.825    0.0391508
 4.835    0.0389131
 4.845    0.0386771
 4.855    0.0384425
 4.865    0.0382104
 4.875    0.0379798
 4.885    0.0377513
 4.895    0.0375247
 4.905    0.0372998
 4.915    0.0370778
 4.925    0.0368559
 4.935    0.0366363
 4.945    0.0364185
 4.955    0.0362026
 4.965    0.0359884
 4.975    0.0357754
 4.985    0.0355648
 4.995    0.0353560
 5.005    0.0351486
 5.015    0.0349427
 5.025    0.0347388
 5.035    0.0345361
 5.045    0.0343350
 5.055    0.0341360
 5.065    0.0339380
 5.075    0.0337417
 5.085    0.0335469
 5.095    0.0333537
 5.105    0.0331630
 5.115    0.0329717
 5.125    0.0327833
 5.135    0.0325960
 5.145    0.0324108
 5.155    0.0322259
 5.165    0.0320435
 5.175    0.0318617
 5.185    0.0316810
 5.195    0.0315029
 5.205    0.0313248
 5.215    0.0311489
 5.225    0.0309742
 5.235    0.0308017
 5.245    0.0306288
 5.255    0.0304578
 5.265    0.0302893
 5.275    0.0301207
 5.285    0.0299537
 5.295    0.0297883
 5.305    0.0296232
 5.315    0.0294607
 5.325    0.0292981
 5.335    0.0291385
 5.345    0.0289782
 5.355    0.0288199
 5.365    0.0286619
 5.375    0.0285066
 5.385    0.0283523
 5.395    0.0281988
 5.405    0.0280451
 5.415    0.0278938
 5.425    0.0277438
 5.435    0.0275944
 5.445    0.0274462
 5.455    0.0272993
 5.465    0.0271528
 5.475    0.0270081
 5.485    0.0268642
 5.495    0.0267213
 5.505    0.0265790
 5.515    0.0264384
 5.525    0.0262992
 5.535    0.0261600
 5.545    0.0260220
 5.555    0.0258846
 5.565    0.0257490
 5.575    0.0256138
 5.585    0.0254802
 5.595    0.0253468
 5.605    0.0252153
 5.615    0.0250843
 5.625    0.0249547
 5.635    0.0248252
 5.645    0.0246966
 5.655    0.0245693
 5.665    0.0244427
 5.675    0.0243172
 5.685    0.0241929
 5.695    0.0240687
 5.705    0.0239455
 5.715    0.0238230
 5.725    0.0237019
 5.735    0.0235818
 5.745    0.0234617
 5.755    0.0233421
 5.765    0.0232251
 5.775    0.0231079
 5.785    0.0229914
 5.795    0.0228768
 5.805    0.0227610
 5.815    0.0226467
 5.825    0.0225333
 5.835    0.0224209
 5.845    0.0223098
 5.855    0.0221988
 5.865    0.0220883
 5.875    0.0219790
 5.885    0.0218702
 5.895    0.0217622
 5.905    0.0216552
 5.915    0.0215482
 5.925    0.0214418
 5.935    0.0213373
 5.945    0.0212328
 5.955    0.0211296
 5.965    0.0210268
 5.975    0.0209240
 5.985    0.0208225
 5.995    0.0207214
 6.005    0.0206218
 6.015    0.0205220
 6.025    0.0204217
 6.035    0.0203238
 6.045    0.0202258
 6.055    0.0201296
 6.065    0.0200329
 6.075    0.0199374
 6.085    0.0198412
 6.095    0.0197474
 6.105    0.0196536
 6.115    0.0195605
 6.125    0.0194685
 6.135    0.0193761
 6.145    0.0192846
 6.155    0.0191933
 6.165    0.0191036
 6.175    0.0190141
 6.185    0.0189245
 6.195    0.0188354
 6.205    0.0187477
 6.215    0.0186598
 6.225    0.0185733
 6.235    0.0184867
 6.245    0.0184019
 6.255    0.0183147
 6.265    0.0182312
 6.275    0.0181471
 6.285    0.0180628
 6.295    0.0179798
 6.305    0.0178980
 6.315    0.0178150
 6.325    0.0177338
 6.335    0.0176525
 6.345    0.0175720
 6.355    0.0174920
 6.365    0.0174125
 6.375    0.0173337
 6.385    0.0172549
 6.395    0.0171767
 6.405    0.0170991
 6.415    0.0170221
 6.425    0.0169451
 6.435    0.0168686
 6.445    0.0167940
 6.455    0.0167188
 6.465    0.0166442
 6.475    0.0165695
 6.485    0.0164955
 6.495    0.0164221
 6.505    0.0163492
 6.515    0.0162776
 6.525    0.0162048
 6.535    0.0161325
 6.545    0.0160620
 6.555    0.0159910
 6.565    0.0159200
 6.575    0.0158513
 6.585    0.0157814
 6.595    0.0157122
 6.605    0.0156429
 6.615    0.0155760
 6.625    0.0155068
 6.635    0.0154393
 6.645    0.0153726
 6.655    0.0153063
 6.665    0.0152400
 6.675    0.0151749
 6.685    0.0151099
 6.695    0.0150430
 6.705    0.0149792
 6.715    0.0149147
 6.725    0.0148514
 6.735    0.0147875
 6.745    0.0147241
 6.755    0.0146621
 6.765    0.0145995
 6.775    0.0145368
 6.785    0.0144752
 6.795    0.0144139
 6.805    0.0143530
 6.815    0.0142927
 6.825    0.0142317
 6.835    0.0141722
 6.845    0.0141125
 6.855    0.0140539
 6.865    0.0139942
 6.875    0.0139357
 6.885    0.0138772
 6.895    0.0138200
 6.905    0.0137627
 6.915    0.0137052
 6.925    0.0136481
 6.935    0.0135925
 6.945    0.0135352
 6.955    0.0134792
 6.965    0.0134230
 6.975    0.0133686
 6.985    0.0133139
 6.995    0.0132595
 7.005    0.0132052
 7.015    0.0131496
 7.025    0.0130959
 7.035    0.0130434
 7.045    0.0129909
 7.055    0.0129385
 7.065    0.0128853
 7.075    0.0128328
 7.085    0.0127809
 7.095    0.0127295
 7.105    0.0126776
 7.115    0.0224705
 7.125    0.0234765
 7.135    0.0233864
 7.145    0.0232967
 7.155    0.0232084
 7.165    0.0231193
 7.175    0.0230314
 7.185    0.0229431
 7.195    0.0228564
 7.205    0.0227705
 7.215    0.0226833
 7.225    0.0225971
 7.235    0.0225118
 7.245    0.0224268
 7.255    0.0223415
 7.265    0.0222586
 7.275    0.0221749
 7.285    0.0220907
 7.295    0.0220088
 7.305    0.0219263
 7.315    0.0218445
 7.325    0.0217633
 7.335    0.0216821
 7.345    0.0216014
 7.355    0.0215213
 7.365    0.0214412
 7.375    0.0213619
 7.385    0.0212835
 7.395    0.0212047
 7.405    0.0211259
 7.415    0.0210482
 7.425    0.0209707
 7.435    0.0208942
 7.445    0.0208166
 7.455    0.0207412
 7.465    0.0206654
 7.475    0.0205901
 7.485    0.0205155
 7.495    0.0204409
 7.505    0.0203661
 7.515    0.0202922
 7.525    0.0202186
 7.535    0.0201447
 7.545    0.0200717
 7.555    0.0200001
 7.565    0.0199273
 7.575    0.0198568
 7.585    0.0197845
 7.595    0.0197134
 7.605    0.0196435
 7.615    0.0195730
 7.625    0.0195026
 7.635    0.0194340
 7.645    0.0193640
 7.655    0.0192954
 7.665    0.0192267
 7.675    0.0191586
 7.685    0.0190905
 7.695    0.0190242
 7.705    0.0189561
 7.715    0.0188886
 7.725    0.0188223
 7.735    0.0187561
 7.745    0.0186898
 7.755    0.0186247
 7.765    0.0185597
 7.775    0.0184939
 7.785    0.0184294
 7.795    0.0183656
 7.805    0.0183010
 7.815    0.0182378
 7.825    0.0181738
 7.835    0.0181118
 7.845    0.0180491
 7.855    0.0179863
 7.865    0.0179236
 7.875    0.0178627
 7.885    0.0178007
 7.895    0.0177391
 7.905    0.0176789
 7.915    0.0176180
 7.925    0.0175571
 7.935    0.0174980
 7.945    0.0174370
 7.955    0.0173785
 7.965    0.0173181
 7.975    0.0172596
 7.985    0.0172012
 7.995    0.0171420
 8.005    0.0170841
 8.015    0.0170269
 8.025    0.0169684
 8.035    0.0169116
 8.045    0.0168549
 8.055    0.0167982
 8.065    0.0167420
 8.075    0.0166853
 8.085    0.0166292
 8.095    0.0165731
 8.105    0.0165182
 8.115    0.0164620
 8.125    0.0164083
 8.135    0.0163528
 8.145    0.0162985
 8.155    0.0162442
 8.165    0.0161909
 8.175    0.0161367
 8.185    0.0160829
 8.195    0.0160292
 8.205    0.0159772
 8.215    0.0159242
 8.225    0.0158722
 8.235    0.0158196
 8.245    0.0157683
 8.255    0.0157158
 8.265    0.0156644
 8.275    0.0156132
 8.285    0.0155617
 8.295    0.0155115
 8.305    0.0154615
 8.315    0.0154107
 8.325    0.0153593
 8.335    0.0156937
 8.345    0.0156854
 8.355    0.0156328
 8.365    0.0155809
 8.375    0.0155296
 8.385    0.0154781
 8.395    0.0154274
 8.405    0.0153767
 8.415    0.0153259
 8.425    0.0152758
 8.435    0.0152257
 8.445    0.0151761
 8.455    0.0151253
 8.465    0.0150770
 8.475    0.0150280
 8.485    0.0149792
 8.495    0.0149307
 8.505    0.0148811
 8.515    0.0148334
 8.525    0.0147858
 8.535    0.0147375
 8.545    0.0146902
 8.555    0.0146424
 8.565    0.0145941
 8.575    0.0145481
 8.585    0.0145015
 8.595    0.0144539
 8.605    0.0144085
 8.615    0.0143620
 8.625    0.0143171
 8.635    0.0142700
 8.645    0.0142252
 8.655    0.0141787
 8.665    0.0141338
 8.675    0.0140892
 8.685    0.0140438
 8.695    0.0139996
 8.705    0.0139548
 8.715    0.0139112
 8.725    0.0138677
 8.735    0.0138235
 8.745    0.0137806
 8.755    0.0137370
 8.765    0.0136928
 8.775    0.0136505
 8.785    0.0136074
 8.795    0.0135645
 8.805    0.0135221
 8.815    0.0134798
 8.825    0.0134386
 8.835    0.0133963
 8.845    0.0133544
 8.855    0.0133126
 8.865    0.0132713
 8.875    0.0132303
 8.885    0.0131896
 8.895    0.0131485
 8.905    0.0131085
 8.915    0.0130673
 8.925    0.0130274
 8.935    0.0129862
 8.945    0.0129461
 8.955    0.0129067
 8.965    0.0128680
 8.975    0.0128279
 8.985    0.0127886
 8.995    0.0127493
 9.005    0.0127098
 9.015    0.0126716
 9.025    0.0126328
 9.035    0.0125946
 9.045    0.0125564
 9.055    0.0125182
 9.065    0.0124801
 9.075    0.0124424
 9.085    0.0124043
 9.095    0.0123667
 9.105    0.0123291
 9.115    0.0122921
 9.125    0.0122550
 9.135    0.0122175
 9.145    0.0121817
 9.155    0.0121452
 9.165    0.0121088
 9.175    0.0120725
 9.185    0.0120360
 9.195    0.0120003
 9.205    0.0119639
 9.215    0.0119286
 9.225    0.0118935
 9.235    0.0118576
 9.245    0.0118236
 9.255    0.0117872
 9.265    0.0117525
 9.275    0.0117174
 9.285    0.0116828
 9.295    0.0116481
 9.305    0.0116148
 9.315    0.0115790
 9.325    0.0115461
 9.335    0.0115122
 9.345    0.0114781
 9.355    0.0114441
 9.365    0.0114100
 9.375    0.0113779
 9.385    0.0113438
 9.395    0.0113104
 9.405    0.0112782
 9.415    0.0112454
 9.425    0.0112120
 9.435    0.0111803
 9.445    0.0111475
 9.455    0.0111147
 9.465    0.0110819
 9.475    0.0110502
 9.485    0.0110186
 9.495    0.0109858
 9.505    0.0109554
 9.515    0.0109237
 9.525    0.0108921
 9.535    0.0108605
 9.545    0.0108295
 9.555    0.0107985
 9.565    0.0107668
 9.575    0.0107364
 9.585    0.0107066
 9.595    0.0106749
 9.605    0.0106451
 9.615    0.0106141
 9.625    0.0105842
 9.635    0.0105543
 9.645    0.0105240
 9.655    0.0104936
 9.665    0.0104637
 9.675    0.0104351
 9.685    0.0104052
 9.695    0.0103754
 9.705    0.0103467
 9.715    0.0103169
 9.725    0.0102877
 9.735    0.0102596
 9.745    0.0102298
 9.755    0.0102018
 9.765    0.0101732
 9.775    0.0101452
 9.785    0.0101165
 9.795    0.0100872
 9.805    0.0100604
 9.815    0.0100317
 9.825    0.0100042
 9.835   0.00997624
 9.845   0.00994819
 9.855   0.00992076
 9.865   0.00989340
 9.875   0.00986522
 9.885   0.00983839
 9.895   0.00981157
 9.905   0.00978414
 9.915   0.00975722
 9.925   0.00972922
 9.935   0.00970299
 9.945   0.00967733
 9.955   0.00964992
 9.965   0.00962420
 9.975   0.00959681
 9.985   0.00957113
 9.995   0.00954490
10.005   0.00951798
10.015   0.00949000
10.025   0.00946076
10.035   0.00943277
10.045   0.00940413
10.055   0.00937717
10.065   0.00934920
10.075   0.00931997
